NIM,Algoritma_dan_Pemrograman,Aljabar_Linier_dan_Matriks,Data_Mining,Fisika_Listrik_dan_Magnet,Grafik_Komputer,Jaringan_NirKabel,Kalkulus,Keamanan_Info_dan_Jaringan,Kom_Data_dan_Jaringan_Komputer,Logika_Informatika,Manajemen_Proyek,Matematika_Diskrit,Metode_Numerik,Multimedia,Organisasi_dan_Arsitektur_Komp,Pemrograman_Berorientasi_Obyek,Pemrograman_Lanjut,Pemrograman_Web,Pengantar_Kriptografi,Pengolahan_Citra_Digital,Prak_Pemrog_Berorient_Obyek,Prak_Sistem_Basis_Data,Prak_Algoritma_dan_Pemrograman,Praktikum_Pemrograman_Lanjut,Praktikum_Pemrograman_Web,Praktikum_Struktur_Data,Rekayasa_Perangkat_Lunak,Sistem_Basis_Data,Sistem_Digital_dan_Gelombang,Sistem_Informasi,Sistem_Operasi,Statistika_Probabilitas,Struktur_Data,Teknik_Perancangan_Sistem,Teori_Bahasa_Automata_dan_Komp,Testing_and_Implementation,Peminatan
1803015001,"54,8","50,5",,69,"61,68","97,7","71,2","90,3","81,25","49,8","84,1","42,7","56,05","81,7","78,45","70,2","72,8","85,3","85,8",,"52,7","69,3",59,"56,35",79,"57,8","84,55","75,5","70,3",65,"78,8","59,95","62,55","60,3","56,2","80,95",Jarkom
1803015004,"82,3","56,6",,74,"80,1",,"59,7","82,5","80,15","70,15","82,05","47,1","73,05","83,9","81,55","73,5","71,3","83,55","57,65","80,05","84,5","84,3","80,6","79,1",80,"70,5","86,05","84,6","66,1",91,"77,6","75,95","78,3","74,85","59,8","87,3",MM
1803015005,"70,8","66,6","95,3","65,5",84,,"72,35","93,4","80,8",77,"77,15","80,25","77,5","83,95","82,5","84,5","77,3","81,15",82,,87,"65,8","76,2",92,"79,95","88,7","87,8","82,65","73,5","82,7","77,6","70,25","84,75","87,6","88,75","91,15",RPL
1803015007,"70,4","75,3","76,15","68,4","74,3",,"69,3","67,5","80,8",69,"84,55","80,5","83,9","78,6",80,"78,2","81,25","79,65","82,05",,"74,8",85,68,"72,1","68,15","74,7","80,65","81,8","56,5","62,25",78,"68,25","82,8","63,9","49,45","82,85",RPL
1803015009,"69,25","32,33",,"47,25",,"71,25","77,25","62,8","79,55","59,28","81,5","21,6","50,9",,78,,"38,5","68,95","29,08",,80,"69,5","59,23","46,1","69,45","63,8","81,5","56,25",,"60,2","56,4",,"71,7","26,2",,"80,5",Jarkom
1803015010,"77,3","86,05","87,7",80,"70,85",,"69,1",93,"81,5","76,35","76,4","69,3","66,55","80,5","81,55","86,9","72,9","82,8","84,1",,"87,5","73,5",80,"62,8","78,75","68,15","84,25","92,25","77,5",82,"78,6",72,"70,2","87,3","93,8","86,2",RPL
1803015011,"83,2","59,3",,"67,5","77,4",,"68,4",73,"81,4","64,2","78,25","72,25",85,"73,3","78,95","72,4","67,15","85,65","60,48","80,5",65,"59,2","75,25","60,45","68,7","69,8","74,5","74,2",73,77,"78,6","63,25","72,5","77,3","82,5","73,23",MM
1803015014,77,"83,2","97,8",70,"80,2",,"86,15","96,25","92,5",84,"81,3","74,6","78,15",75,"65,5",94,"76,4","83,1","84,9",,"88,2","65,25","80,   5","84,7","78,75","76,3","82,3","86,5",81,"69,3","85,55","83,5","87,1","85,75",82,"87,4",RPL
1803015016,"80,3","93,75","90,75","78,7","91,6",,"69,55","80,05","90,1","93,5","78,3","75,1","88,8","82,95","81,35","88,1","80,2","81,8",74,,"91,5",94,"80,3",96,"79,95","87,6","81,25",90,"77,5","87,45","91,95","90,25","74,3","82,4","74,9","89,1",RPL
1803015017,"80,2","61,2",,"82,5","68,1",,"60,35","84,2","77,6","62,5","83,25","44,8","65,4",76,"68,05",,"78,15","74,95","81,4",71,79,72,76,"57,45","52,7","56,8","82,55","61,7","56,9","90,5","68,6",57,"70,5","81,2",83,"84,25",MM
1803015018,"77,5","58,65","84,8",70,"77,8",,"62,65","91,85","69,7","76,75","88,7","71,8","68,25","83,3","67,6",74,"76,8","80,6","57,6",,82,"83,8","84,1","87,3","77,95","82,5","87,95","88,3","62,5","85,75","78,6",68,78,"85,6","84,2","73,9",RPL
1803015019,"68,3",63,"91,85","68,7","73,2",,"63,1","76,5","85,7","81,85","79,9","61,5","74,3","72,7","73,6","72,1","71,8","79,9","82,7",,"73,2","92,75","76,2","63,55","69,75","68,15",79,68,"75,1",76,"77,5","69,25",69,"78,2",81,"87,6",RPL
1803015023,"74,7","56,05","79,25","66,1","80,8",,"51,5","95,5",76,"76,75","73,15","74,3",71,76,70,76,"76,85","83,35","81,5",,"80,5","83,5","80,5","60,05","79,15","79,7","80,4","82,25","63,5",75,"80,75","69,7","70,3","80,5",77,"87,35",RPL
1803015027,"85,6","86,9","97,05","84,5","87,8",,"80,05","96,5","88,3","98,45","80,9","73,6","69,9","90,2","82,5",79,"95,25","82,8","95,1",,"90,5",100,"76,2","95,35","77,95","94,4","77,25","82,7",81,"86,9","89,55","87,25","95,3","89,5","87,25","93,5",RPL
1803015030,"77,8","68,5",,"71,4","71,15",,"59,7",84,"73,45","81,5",83,"75,05","77,8",78,87,"84,4","76,9","66,5","80,9","73,2","74,5","72,5",80,"74,4","64,5","68,8","61,3",76,70,89,"80,6","68,85","75,8","70,95",76,"75,2",MM
1803015039,"75,9",73,"66,95","64,15",75,,"65,55","83,05","68,4","78,05","92,8","68,8","71,3","83,6","64,05","68,7","72,7","61,6","73,2",,"61,6","69,5","80,1","65,3","59,45","66,1","89,35","72,75","61,4","60,55","57,6",68,"72,9","68,9","58,15","56,6",RPL
1803015045,"71,5","63,98","82,95","74,45","84,2",,"66,9","84,95","73,3","58,5","82,8","62,8","78,15","83,05","75,5","74,5","76,1","82,85","78,3",,"72,8","72,75",80,"78,95","78,75","62,2","76,75","88,45","64,55","71,5",80,"82,7","61,7","87,8","82,45","83,35",RPL
1803015047,59,59,,"74,5","70,4","91,95","61,4",91,"85,7","64,15","80,95","43,1",73,"69,55","76,5","88,8",76,"81,55",85,,"88,3","75,6","78,5","96,3","78,35","88,8","77,45","83,45",65,"62,4","77,7","63,6","76,6",90,"87,75","74,8",Jarkom
1803015048,"76,7","85,65","83,9",85,"89,15",,"86,35","93,5","85,75","91,85","85,5","90,75","71,7",76,"81,95","90,2","93,55","96,6","77,2",,"80,95",96,"85,7","92,6","87,25",94,"91,3","86,1","71,5","91,5","79,3","64,95","88,75","86,45","76,8","90,9",RPL
1803015050,"83,4",80,,59,"80,3",,"68,05","97,3","81,6","91,35","88,7","84,05","87,5","76,7","86,2",94,"81,9",81,82,"89,75","89,8","92,95","76,2","93,7","80,2","69,45","87,95","82,3",84,"78,15",80,"70,7","70,5","90,95","89,5","92,9",MM
1803015051,"65,95","77,25",,"54,55","56,4","90,35","52,18",68,"72,1","56,45","83,2",67,"64,1","79,3",80,"56,4","56,2","75,95","67,8",,"61,7","70,55","76,2","59,7","71,75","66,75","80,35","84,55","65,5","68,2","80,8","59,43",69,"72,1","66,63","80,05",Jarkom
1803015053,"83,6","93,5","81,05","73,5","86,2",,"96,5",81,"80,45","73,55","82,5",86,"87,15",87,"75,6","94,95","95,5","98,2","91,75",,"97,5","97,7","83,5","97,15","81,1","80,2","83,9",77,"73,4",79,"82,65","82,1","93,1","91,7","94,75","85,15",RPL
1803015055,"76,5","70,05","88,1",77,"71,45",,"61,65",75,"80,4","72,53","70,25","69,05","74,3","71,55","82,05","71,3","60,85","83,55","83,3",,"77,2",92,73,"94,8","71,75","68,25","89,8","74,25",69,"83,5","74,6",70,69,"89,6","81,75","73,9",RPL
1803015057,"63,1","71,5","88,75","72,1","76,9",,"63,9","95,4","87,2","82,4","76,25","80,75","78,5","78,45",88,"90,4","80,4","83,6","83,3",,"75,2","69,3","76,2","96,3","80,9","68,25","79,2","90,25","76,2","78,5",83,"75,95","70,2",87,"94,2",84,RPL
1803015058,"70,8","73,85","90,5","80,3","69,25",,"71,85","92,7","88,7","78,95",88,"78,35",79,"82,3",88,"86,3","85,7","77,3","85,1",,"85,2","77,2","76,2","59,78","77,95","69,2",88,"83,5",84,"80,8","80,3","71,25","75,8","80,4","92,95","74,7",RPL
1803015060,"73,5","68,05",,"76,75","83,2","93,7","65,8",84,77,"80,2","82,3","81,25","82,1","83,25",70,"80,2","72,1","81,05",75,,"81,5","67,4",73,"61,58","69,75","69,8",88,"80,15",68,"68,2","81,85","82,95","80,8","80,55","84,75","70,65",Jarkom
1803015062,"65,9","58,35",,"73,5","80,6",,"56,3","69,5","84,9","60,85","78,3",56,"72,3","77,7","75,3","60,9","56,3","71,5","82,2","75,5","68,8",68,"71,2","53,58","69,75","82,9","79,95","57,95","65,5","61,23","77,5","69,25","56,6","80,9","56,5","68,2",MM
1803015064,"60,3",73,"89,5","72,1","73,5",,"61,9","73,25",81,"86,05","74,25","74,5","63,2","81,9","86,05",82,"63,05","81,35","75,3",,"83,5",71,"76,2","64,48","69,75","67,8","85,2","70,6","64,25","62,15","80,9","80,1","75,3",85,"86,75","73,8",RPL
1803015066,"71,2","56,55",,"26,83","37,33","96,7","54,4",,"70,7",63,"41,35","56,1","63,15","13,75","86,2","46,2","59,3","72,95","31,75",,11,"75,05","70,4","45,4","15,6","51,4","62,58","61,55","74,9","83,45","73,4","52,35",70,"75,55",56,"79,75",Jarkom
1803015069,"80,5","85,35",,69,"82,4","74,5","83,6","96,1",89,"70,9","82,6",91,"88,35",80,"74,9","90,35","91,5","98,75","84,5",,"89,1",100,"83,2","87,05","82,15","85,5","80,95","73,4",59,82,78,"97,75",83,"86,95",93,"82,75",Jarkom
1803015071,56,65,"91,5","65,1","84,7",,"56,85","91,8",81,72,"77,4","56,25",68,"82,25","77,5","80,1","57,9","81,05","80,6",,"88,5","72,85","76,2","87,4","79,95","66,25","78,75","80,9","88,1","56,15","90,55","68,2","69,45",83,"74,6","90,15",RPL
1803015072,"56,2","47,7",,"51,4","25,65","72,5","31,15",,"75,15","58,45","80,35","12,3","12,95","80,5","57,75","60,6","51,65","68,95",42,,"56,4","57,35","76,2","41,8",68,"38,5",82,"56,45","59,4","56,3","61,25","63,75","19,7","72,3","62,5",,Jarkom
1803015074,"78,5","57,28",,"64,45","74,15",,"56,25","93,05",75,"65,8",85,"62,65","73,5","81,2","78,7","75,5",73,"81,1","71,1",70,"66,4",68,68,"71,2","78,75",87,79,"64,7","62,7","78,5","85,2","62,5","82,5","78,4","62,9","81,55",MM
1803015078,"59,2",57,"97,05","61,1","85,7",,"59,55","90,2","84,25","58,95","86,45","61,5","66,5","83,05","76,5","76,8","64,7","80,8","82,5",,"84,3","79,2","76,2","95,6","79,95","68,65","85,45","76,75",85,"62,25",93,"63,2","70,2","85,8","76,9","90,45",RPL
1803015079,"68,05","54,53",,"56,13","61,13","96,45","72,6",93,"80,3","58,8","80,5","57,25","76,05","81,1","59,35",77,"62,9","82,4","57,8",,"71,65","72,5","76,2","60,18","77,55","65,65","74,1","62,5","60,7","66,45","66,8","56,3","69,15","80,05","82,6","83,65",Jarkom
1803015081,"62,5","50,38",,"63,13",69,"96,45","75,45",93,"75,95","52,85","80,65","53,9",,,"67,25","74,6","57,7","75,25","72,9",,"46,1","70,9","69,8","61,8","72,45","66,45","78,85","70,5",68,"75,25","85,95","83,2","57,75","63,9","42,15","65,78",Jarkom
1803015087,"73,5","60,03",,"33,75","64,9","91,45","59,15",80,"63,1","81,5","82,45","48,38",56,,"59,9",61,"66,2","80,6","80,3",,"62,6",68,"65,55","60,9","77,55","60,5","79,15","59,6","65,45","56,2","74,6","56,2","60,13","59,73","70,35","78,7",Jarkom
1803015088,"60,5","39,85",,"68,45","63,55","93,7","81,2","90,05","82,4","63,3","83,95","60,95",63,"80,4","61,6","63,7","72,7","81,1",81,,"66,4","59,2",61,"55,7","77,55","68,65","80,95","58,1","61,3","67,4","84,75","61,88",69,"75,6","56,3","80,95",Jarkom
1803015089,"75,4","93,25",75,"58,35","69,05",,59,,"76,4","62,2","63,8","56,65",58,"71,75","68,75","70,5","57,6","76,3","65,1",,73,59,"56,3","72,5","68,4","86,75","60,9",72,70,"85,05",78,"79,3","84,2","73,1","64,95","70,8",RPL
1803015090,"80,9","69,23","94,5",85,"69,5",,"68,6","91,8","79,5","69,25","85,35","57,45","75,6","82,5","70,85","70,5","68,28","80,65","68,2",,"60,95","70,95","73,4","73,7","79,95","62,7","80,95","75,6","68,5","87,5",68,"80,8","67,85","74,6","70,75","87,8",RPL
1803015091,73,"90,1","84,8",77,"72,25",,"78,1","91,8","86,35","79,4","78,2","77,05","89,75","73,05",83,"90,2","81,9","93,15",77,,"76,45",81,75,"89,85","82,65","86,5","91,3","83,8","80,6","86,25","84,2","86,5","84,5","88,55","73,6","88,65",RPL
1803015093,"71,75","56,95",,"58,28","68,75","94,95","64,38","93,4","73,8","60,75","83,2","60,45","62,9",,"71,4","72,3","70,1","76,5","60,9",,"52,28","65,3","76,2","77,8","74,95","70,4",83,"65,2","78,7","68,2",74,"57,25","56,1","84,55",76,81,Jarkom
1803015095,"74,5",53,,"71,25",78,,"61,48","90,05","78,4","63,3","85,6","57,15","73,65","81,9","80,55","68,2","67,2","81,1",80,"72,7","68,4","56,5","71,9",70,"78,75","86,3","79,75","67,15","56,3",67,"84,3","59,95","76,5","77,1","56,3","81,55",MM
1803015097,69,"59,3",,75,"64,2",,"65,15","82,75","73,2","65,6",80,"68,2","65,05","77,2","84,8","70,45","65,5","90,15","80,7",75,"73,35","69,5",71,"64,4","64,95","68,65","78,75","71,8","63,28","79,7","90,55","68,5","68,2","79,9",91,"83,7",MM
1803015099,80,93,"98,3","81,65","85,7",,"77,15","93,4","85,05","90,9","78,4",94,83,"84,05","88,75","81,7","87,2","81,35","87,05",,93,"96,45","76,2",96,"79,95","71,95","91,25","93,65","77,7","78,75","90,25","98,25","71,8",90,"81,9","92,2",RPL
1803015100,"68,3","71,65",,"64,33","69,95","95,7","60,2","81,7","70,3","63,8","65,75","84,65","65,8","82,65",71,"81,1","61,7","81,2","82,3",,"59,25","68,65","76,2",62,"65,15","63,6","59,4","73,9","70,15","80,75","74,45","63,5","81,2","87,8","82,5","89,5",Jarkom
1803015102,60,"53,55","84,15","63,75","75,25",,"56,05","72,5","69,6","56,5","84,85","65,8","61,35","80,45","75,7","69,4","63,8","70,4","56,05",,"76,45","80,6",81,"68,15","62,75","74,4","79,75","60,35",67,"69,85","71,85","69,75","67,3","83,8","57,4","83,5",RPL
1803015103,"70,3","56,35","80,35","75,2","75,15",,"96,5","89,05","80,2","77,4","82,85","74,3","73,8","81,25","84,2","91,8","76,5","80,35","77,4",,"76,4","70,5","81,4","94,1","80,9","90,6","76,6","73,9",69,"84,05","80,1","80,45","68,3","86,4","56,6","77,65",RPL
1803015104,"71,7","68,35","89,1",84,"82,2",,"72,9","93,5","90,6","65,6","80,05","63,4","74,6","81,5","74,75","89,9","77,55","78,95","80,2",,"69,7",88,"77,5","74,8","68,15","68,3",77,"80,3",64,"79,35","76,5","60,45","68,6","87,95","86,5","82,15",RPL
1803015106,"77,3","80,5","82,05","71,75","78,4",,"66,15","95,4","85,7","94,95","78,65",95,"83,7","75,2","77,5",92,"97,3","81,35","83,7",,76,"87,45","76,2","97,7","80,9","68,75","79,35","94,05","83,6","76,2","81,8","90,5","72,2","85,75","97,95","84,2",RPL
1803015107,"68,7","56,5",,"59,58","83,9","73,25",62,"84,6","85,55","69,78","85,75","69,6","70,35","83,25","75,55","91,1","68,7","89,95","86,2",,"68,3","72,3","76,2","86,5",69,"85,75",81,88,68,"68,1","77,5","74,3","80,75","80,1","89,25",,Jarkom
1803015108,74,"64,7",,"76,75","76,7","94,2","61,15",91,"80,15","82,5","84,7","68,1","61,9","74,65","61,7","85,9","68,4","84,3","81,3",,"71,3","58,95","59,5","82,4","78,5","56,1","83,25","69,5","82,9","60,25","80,25",81,"68,3","83,7",68,"80,45",Jarkom
1803015110,"66,3","68,35","69,45","64,7","77,55",,"83,1","77,95","72,1","60,95","77,6","75,9","74,9","80,75","71,3","74,1","72,5","84,85","76,15",,"64,1","74,15",68,"72,65","56,25","89,5","80,05","77,8","67,4","85,25","77,2","76,25","80,05","85,6","91,75","80,35",RPL
1803015111,75,"75,05","81,95","63,3","78,05",,"62,4","89,2","80,3","79,95","82,8",66,76,"81,9","86,2","84,15",84,"80,6","83,7",,"64,55","72,7","80,7","94,4","79,95","80,3","81,7","78,3",82,"92,45","80,5","69,75","86,7","85,9","56,4","77,5",RPL
1803015115,"86,2","90,9","77,55","74,75","86,4",,"77,3","92,25","82,3","88,2","77,8","70,55",75,"74,3","69,45","83,4","87,05","92,45","73,2",,"94,35",88,"76,2","84,75","72,7","93,5",75,"76,05","83,5","78,25","87,95","80,05","84,3","74,6",80,"89,75",RPL
1803015117,"56,6","39,3",,"38,4",,,0,"56,3",,"60,7","75,85",25,0,,0,0,0,"79,3","0,25","68,1","12,15",,72,"11,4","71,2","52,95",,,0,"31,85",,,"32,05",0,"2,7","76,15",MM
1803015118,"70,9","94,25","86,95","79,3","78,9",,"96,5","77,95","80,2","92,75","73,7","79,05","65,4",,"64,1","81,3","77,5","80,5","73,75",,"74,5","94,9","73,2","63,45","80,15","79,3","74,1","79,1",77,"71,75","80,6","73,25","83,6","68,35",88,"88,4",RPL
1803015122,"70,1","56,7",,"72,5","68,9",,"56,6",,"70,15","57,85","71,7",77,"53,18","70,25","69,55","58,2","73,9","76,7","42,9","68,15",58,70,"62,2","52,73","73,75","65,05",82,"70,5","81,9","77,65","80,9",61,"69,2","68,6","74,5","81,25",MM
1803015125,"74,2","58,7","80,35",61,"68,2",,"81,3","93,5",77,"79,5","74,6","56,2","73,35","77,5","83,4","57,4","80,8","83,05","69,1",,"54,53","80,3","69,8","66,4","80,3","67,4",85,"71,1","71,5","78,8","70,5","70,73","65,5","64,38","56,9","78,3",RPL
1803015126,"60,2","54,55","74,9","63,6","81,65",,"69,8","71,5","71,5","65,18","80,95","58,1","66,75","80,6","81,05","72,05","66,1","75,05","66,05",,"69,95","76,45",75,"57,95","56,3","88,1","81,4","68,25",82,"61,35","74,1","63,75","68,4","69,7",68,"71,85",RPL
1803015128,70,"56,45",,68,"71,4","91,45","61,1",75,"83,7",61,"80,5","57,8","66,8","83,6",81,"60,6","57,9","73,05","81,9",,76,"73,25","77,5","78,6","68,25","68,65","80,35","59,7","49,25",68,74,"59,25","56,2","68,35","77,2","68,15",Jarkom
1803015130,56,"79,6",,"64,4","83,3","70,5","56,3","93,4","80,45","76,05","80,05",64,"69,3","81,65","70,75","76,8","63,2","79,05","80,3",,"75,9","75,5","76,2","72,35","79,95","68,15","79,65","68,2","66,8","64,25",91,"69,75","69,45","76,4","77,8","88,85",Jarkom
1803015131,"81,2","58,1",,"58,55","56,2","88,7","58,4","90,2","66,8","60,75","76,7","74,75","66,95","82,55","57,9","76,3","56,9","69,1","85,5",,"86,9",69,"76,2","66,58","78,45","67,75","78,05","70,25","85,5","71,75","75,2","57,8","70,2",74,"88,25","87,15",Jarkom
1803015135,"80,2",68,,79,"81,5","69,25","68,75","81,2","78,7","69,25","89,5","72,35","69,65","80,2","85,5","71,8","64,4","76,7","65,6",,"70,3","72,25","68,2",90,70,"62,7","89,5",79,"61,6","71,9","80,1","69,75","77,2",90,"56,3","72,8",Jarkom
1803015138,"56,1","56,95",,"59,65","76,9","90,95","63,6","81,2","71,4","66,03",77,"64,65","57,75","81,25","87,55","72,35","56,6","80,85",81,,"88,3","74,5","76,2","90,8","75,5","63,8",83,"78,75","69,9","70,2","75,8","64,45","78,9","68,95","78,1","69,1",Jarkom
1803015139,"73,9","69,6","92,2","77,15","77,9",,"72,1","81,2",81,72,"83,3","68,85","57,75","81,5","84,35","58,6","62,9","83,05","82,5",,"75,4","85,25","77,4","85,8","73,7",69,"83,5","94,15","75,9",82,"78,9","76,7","76,9","80,3","74,7","60,9",RPL
1803015140,67,"40,88",,"70,45","68,95",,"60,9",69,"81,5","75,75","81,25","58,65","65,65",74,"73,85","82,65","80,2","79,65","56,55","73,6","59,3",93,68,"57,7","58,25","81,5",82,"63,8","64,8","66,25","72,8","58,5","58,3","85,3","68,9","82,45",MM
1803015141,"75,9",95,"88,8","59,1",80,,"85,3",95,"80,05","97,25","77,8","72,2","93,5","80,3","62,6","77,55","74,9","95,75",77,,"58,8","87,4",80,"69,75","80,1","71,8",60,"85,3",73,"78,85","80,1","80,75","74,9",80,91,"85,2",RPL
1803015142,"81,3","84,05",,81,"86,95",,"69,4","95,4","79,1","78,6","73,9","78,9","74,2","85,5","58,3","77,1","80,9","95,3","70,7",80,"77,15","78,7","78,5","94,6","75,05","88,25","89,6","90,7",80,"77,2","73,3",94,"88,95","84,95","88,75","92,95",MM
1803015143,"74,3","57,15","86,4","65,5","76,6",,"70,1","81,2","81,1","56,75","75,6","70,75","69,25",81,"65,05","68,7","66,1","68,5","80,7",,"63,53","61,5","62,5","52,83","57,75","68,3","58,4",68,80,65,"81,6","82,45","83,8","88,5","91,75","71,4",RPL
1803015145,"68,3","63,75","72,95","64,5","81,6",,"64,7","87,75","84,5",73,"82,2","85,65","63,8","80,8","84,05","71,8","68,2","77,25","82,2",,80,"88,25","76,2","82,6","80,25","68,75","78,5","82,2","79,2","76,25","71,5","84,25",69,"78,9","83,5","84,8",RPL
1803015146,"80,1",81,,"72,75","78,4",,"71,1","96,25","88,5",82,"87,25","71,1","68,25","80,7","70,5",95,"93,8","83,1",84,"80,5","85,2","88,4",72,"97,7","79,95","82,7","89,5","93,15","83,2","70,8","89,4",81,"91,9","92,5",88,"91,45",MM
1803015150,"81,5","80,2",,"81,5","80,1",,69,"85,25","82,4","72,6","80,2","74,3","70,15",77,"87,5","82,3","75,8","90,15","82,3","81,65","73,75",90,80,"68,35","66,4","68,65","87,45","80,15","77,9","80,2","91,75","86,5",69,"84,6","90,5","95,4",MM
1803015152,"56,1",66,,"58,25","77,3",,"59,2","78,5","77,4","74,15",78,"61,7","65,4","82,85","66,1","70,8",80,"78,55","68,65","78,5","78,4","66,23","76,2","63,95","69,75","66,1","71,2","70,6","70,15","74,9","80,8","59,5","60,4","79,4","75,5","79,4",MM
1803015153,"82,7","56,05",,"58,35","56,15","93,45","57,6","68,05","74,8","58,75","81,1","55,05","59,75","65,1","78,1","68,8","63,5","62,85","62,2",,51,59,"76,2","49,6",,"63,8",56,"66,2","72,2","76,5","74,5","62,85","70,8","73,7","56,6","47,65",Jarkom
1803015155,"84,4","80,75","83,95",80,"81,05",,"75,45","82,45",87,"78,85","76,7","69,68","71,75","74,6","70,9","74,7","82,8","81,6","77,3",,"73,5","58,55",65,"63,55","69,75","82,1","77,25","71,85","65,3","73,75","77,5","87,2","70,3","80,5",84,"81,25",RPL
1803015156,"69,5","56,5",,"66,3","76,05","91,45","57,85","97,5","70,6","85,45","81,4","80,05","72,9","80,4","58,4","92,6","79,5","80,7",73,,"68,6","82,9",80,"56,4","70,45",83,"57,9","72,5","62,5","66,25","80,5","57,7","81,8","80,05",78,"72,1",Jarkom
1803015157,"81,5","81,9",,81,"81,05",,"82,2",94,"90,2","76,35","76,3","74,75","80,3","74,25","79,6","85,2","84,15","95,95","81,9","81,25","69,05",88,84,"66,3","71,95","67,8","85,9","87,5",68,"68,25","84,3","79,75","77,6","75,7","68,2","93,2",MM
1803015159,"70,1","73,5","99,75","72,65",78,,"71,6","94,6","85,7","76,7","75,05","76,25","77,5","80,5","72,1","84,9","82,4","85,3","85,6",,"72,8","91,5","76,2","94,9","78,75","70,4","84,05","93,6","74,7","77,75","82,7","93,45","70,2","91,5",83,"84,8",RPL
1803015160,"82,8","57,05",,"74,48","81,8","91,2","68,15","83,3","81,2","78,85","86,35","78,3","70,35","82,2",75,83,"74,05","80,25","83,4",,"87,9","63,15","76,2","66,38","79,5",69,"82,1","78,45","73,25",84,"80,8","63,95","79,3","82,15","68,6","91,9",Jarkom
1803015162,"85,5","61,75",,76,"88,55",,"68,2","91,1","81,4","78,1","76,3","82,05","82,6","86,4","87,5","81,05","80,7","95,65",84,"80,25","82,1","85,5","87,7","78,85","75,2","71,2","91,5","83,95","80,2",80,"84,5","86,5","70,2","92,5","91,75","94,25",MM
1803015163,"71,8",89,"75,2","87,75","85,95",,"92,5","93,5","80,15","84,3","76,7","70,3","79,3","86,55","84,7",94,"83,1","72,1","81,6",,"89,8","86,5","85,2","92,9","79,75","70,4","81,55","77,7","71,5","93,2",78,"80,25","68,25","87,5","56,4","88,1",RPL
1803015164,"71,1","51,95",,53,"60,95","91,2","71,18",75,83,"60,85","79,75","32,52","58,2",,"76,55","65,6",74,"68,15",60,,"85,2","68,25","71,4","76,1","69,75",58,"80,65","56,05","60,75","65,88","76,5","73,1","64,2","68,75",80,"84,1",Jarkom
1803015166,"73,6",60,"90,5","79,75",63,,"70,8","80,8","72,4","73,05","87,95","73,5","64,7","80,5","87,5",77,"64,4","84,2","68,2",,56,"78,7","76,2","89,8","79,75","68,25","58,1","86,6","74,4","77,3","78,5","74,7","70,2","80,05",74,"89,9",RPL
1803015168,"51,3","56,35",,57,"51,53","95,45","57,48","72,5","75,6","52,5","21,3","34,65","56,5","69,7","73,9","65,8","64,6","75,15",48,,"32,4","67,8","68,2","47,73","33,9","71,8","79,75","53,45","63,6","57,85","56,25",,"64,6","73,75","54,75","79,75",Jarkom
1803015169,"70,9","56,2",,76,"74,4",,"76,9","79,2","69,6","72,2","84,05","79,45","82,85","83,15","76,8","77,15","69,45","84,2","74,25","72,95","66,05","85,05","76,2","82,65","79,1","89,5","84,1","64,4","70,8","86,75","77,2","76,75","80,05","83,2",85,"81,25",MM
1803015172,68,80,,"58,4","73,4",,"58,25",,"70,7","63,88","80,95","59,7","50,83","77,1","69,7","58,6","65,78","76,5","76,4","75,65","85,2","74,5","56,1","42,68","78,8",57,"81,1","58,85","80,9","70,9","74,1","56,65","61,43","57,55","76,5","74,1",MM
1803015173,"80,1","84,5","80,4","75,25","87,1",,"60,8","90,7","77,5","87,25",84,"73,35","86,4","80,2","92,95","73,8","81,8","94,4","83,9",,93,"85,05","76,2",96,"79,2",84,"81,25","92,15","77,5","76,5",82,"94,25","81,5",94,"75,7","93,45",RPL
1803015174,"69,6","76,95","90,3","78,1","88,7",,"68,05","90,7","87,7","85,75","84,3","79,15",84,"81,5","93,5","72,6","75,7","87,7","83,9",,"91,5","80,6","76,2",96,"79,6",82,"84,4","90,65","80,2","80,05","81,2","94,95","76,9","93,3","75,3","91,85",RPL
1803015176,"77,6","58,8","80,25",72,"82,15",,"84,6","77,95","77,2","70,8","80,2","86,8","74,15","83,3",72,"73,95","77,85","83,3","81,35",,"76,4","68,2",76,"86,25",65,"74,2","81,25","57,2","68,05","86,25","78,55","69,25","74,05","75,85","86,25","79,9",RPL
1803015178,"64,5","56,65",,75,"53,7",,"77,88",74,"62,7","65,65","79,75","62,1","56,75","79,4","62,4",75,"72,4","80,45","69,7","73,75","69,3",70,"65,8","78,1","79,5","71,4","80,65","60,5","61,7","64,6","59,7","59,95","70,1","70,1","56,5","80,5",MM
1803015179,"66,2","56,35",,"78,5","48,35",,"60,9","93,75","76,9","67,62","86,65","71,2","37,3","78,9","72,5","59,9","69,2","71,5","57,3","70,3","50,28","67,35","69,4","82,6","68,2","67,6","81,85","75,7","60,6","68,2","75,4",71,"70,4","87,5","59,25","83,35",MM
1803015184,"69,4","77,3","80,15","65,6",76,,"56,4","89,8",84,"70,7","82,75","67,2",58,"80,3","77,55","79,6","70,75","74,15","81,8",,"81,5","75,2",80,"63,15","78,05","86,7",82,"73,9","69,4","87,75","80,3","77,2",83,"83,85","84,5","80,35",RPL
1803015185,54,"58,4",,"65,5","34,25","96,95",56,,"71,9","59,95","60,2","50,78","10,5",,"53,55","58,2","70,3",68,"24,8",,59,,73,,"69,75","64,2",82,32,"59,5","57,45",,"45,2","57,35","75,65","78,8",,Jarkom
1803015186,"68,8",68,,"79,5","57,55","72,5","68,2",78,"79,45","73,75","78,75","62,45","61,2",77,"73,25","59,6","78,8","64,05",56,,"58,4",73,"73,8","73,8","57,2","73,5","70,9","80,5",61,"87,7","66,45","65,95","72,8","76,6",68,"80,65",Jarkom
1803015187,"57,2",71,,"62,25","60,9","72,5","67,15","89,5","68,35","71,5","77,3","65,85","70,9","80,5","76,85","74,9","78,1","77,75","61,88",,70,"66,8","76,2","93,9","69,75","68,25","79,75","74,6","62,5","73,5","72,45",74,69,"82,1","59,2","87,9",Jarkom
1803015188,"56,4","56,55",,"55,88","72,4","92,45","66,3","90,7","80,5","56,45","89,2","70,83","62,9","72,7","85,95","77,5","56,1","75,8","72,2",,80,"81,75","76,2",87,"73,05","63,8","72,5","81,35","80,1","76,55","77,6","56,95","74,9","83,55",66,"84,45",Jarkom
1803015189,"57,9","64,3",,"70,75","82,4","94,8","59,5",84,66,77,"76,05","77,7","76,6","81,7","77,3","76,2","75,4","80,85","77,7",,80,"78,75","72,5","80,7","79,75","75,3",82,"92,15","75,4","61,98","67,55","86,2","87,8","80,3",78,"94,25",Jarkom
1803015190,"73,4","85,5","77,25","83,45","72,8",,"87,7",73,"76,55","80,2","81,8","76,05",67,83,"72,7",78,"87,3","91,3","62,85",,"69,65","88,3",78,"71,9","68,1","77,7","79,75","77,2","64,2",73,"72,4","70,5","80,9","87,3","70,25","80,35",RPL
1803015192,"66,7","68,6",,66,"68,85","95,7","60,05",,84,"66,85",81,"63,3","75,3","80,1","77,3",74,"63,5","85,85","73,3",,"64,75","59,9","64,6",91,76,"74,9","81,85","63,2","63,4","60,35",69,"68,95","69,2","87,2",78,"81,25",Jarkom
1803015193,"64,6","56,15",,"69,5","68,2",,"60,6",71,"75,9",59,"74,3","59,4","73,9","80,5",69,"74,2","80,1","58,9","76,5","68,05","61,45","50,4",68,"69,2","79,1","60,9","70,5","56,2",62,"71,68","79,4","76,95","64,8","81,4",74,"80,65",MM
1803015195,"56,3","69,5",,"64,05","69,7","92,2","63,08",,"71,05","57,65","85,45","56,85","61,2",,"60,45","64,1","66,4","81,7","50,55",,"71,3","57,8","76,2","65,8","73,5","57,1","80,65","57,4","72,2","66,13","61,4","58,93","62,5",82,"71,3","66,23",Jarkom
1803015196,"72,8","63,7",,"62,25",76,"98,2","59,65",82,"85,5",57,79,"67,3","57,25","86,3",57,76,"77,6","81,85","73,3",,"82,7","56,3",71,"83,2","78,8","64,5","83,5","78,75","71,9","56,25","74,4","62,25",75,"84,35",60,"90,8",Jarkom
1803015200,"72,7","90,3",,83,"86,6","72,5","82,5","90,5",83,"67,5","76,6","85,55","88,85","87,55","76,2","89,9","81,3","89,55","75,25",,"70,35",85,"68,2","56,25","81,1","66,1","81,6","72,95","73,1","88,5","78,55","82,7","78,6","86,2",82,"88,1",Jarkom
1803015204,"76,5","73,65",,"68,25","80,2","95,2","60,4",91,77,67,"85,25","72,2","68,6","73,85","61,8","86,2","80,7","84,3","83,3",,"83,7","62,55","68,2","91,4",80,"81,1","81,25","75,3",78,"68,75","78,75","63,25","68,8","88,95",68,"83,55",Jarkom
1803015205,89,"96,5","81,6","92,5","81,05",,"90,5","96,25","76,4",97,"69,95","95,95","76,1","70,3","68,5","74,4","80,55","80,4","81,4",,"83,3","72,4","70,2","66,15","79,95","86,8","87,25","87,8",81,"66,25",80,"98,25","86,75","86,25","95,5","85,35",RPL
1803015206,"80,1","96,5","95,85","66,3","77,5",,"94,9","93,5","88,5","93,25","74,5","83,2","85,3","80,95","83,45",93,"81,3","81,15","83,4",,89,81,83,"97,2","79,95","87,4","78,45","92,15","83,1","79,65","81,5",88,"90,9","92,55",82,"90,55",RPL
1803015211,"59,5","62,63",,"56,63",74,"94,95","53,23","91,55","67,5","64,1","80,95","45,05","61,65","71,25",66,"77,7","57,45","79,4",71,,,"68,75","62,5","55,33","77,15","65,7","76,75","61,4","68,05","59,5","76,5","76,75","62,25","83,05","68,3","76,2",Jarkom
1803015212,"76,8","87,5","76,98","80,75","71,95",,"86,5","92,25","91,7","81,45",85,"71,9","69,25","74,25","88,4","80,15","90,95","84,3","77,6",,"68,15","87,8","74,6","59,35",80,"74,6","88,7",68,78,"77,7","84,3","79,2","77,9","83,4","68,8","90,1",RPL
1803015213,70,"68,1","70,7","56,3","72,45",,"68,05","82,5","82,2","69,65","89,5","43,35","68,6",82,"89,5",81,"76,1","74,15","76,25",,"60,9","80,2","73,3","97,5","68,65","97,45",76,"78,7","69,55","97,45","80,5","70,7","97,45","85,8","46,6","79,85",RPL
1803015217,"45,9","62,3",,"62,75","50,55","96,2","58,55",75,"56,3","56,25","79,75","34,6","81,05","75,5","29,75",,"69,1","68,3","80,1",,37,"61,8","76,2","54,55","79,4","65,5","62,6","53,2","60,9",78,"70,75",,"36,1","80,35","45,7","83,65",Jarkom
1803015221,"80,1","79,8",,"78,5","85,6","89,4","68,2","92,8","91,7","68,05","83,5","78,3","91,85","84,8","80,2","88,2","81,15","87,7","85,4",,"61,45","68,9",80,"71,6","67,3","85,5","82,15","78,95",71,"77,6","81,4","71,45","91,45","77,5","74,1","86,65",Jarkom
1803015222,66,"74,35",,77,"75,5",,"65,6",71,82,81,"73,8","61,1","82,8","81,55","80,45","72,5","84,95","87,75","71,45","75,25","68,15","58,65",59,"63,9","58,1","84,5","62,9","59,95",69,"70,35","72,35","72,25","80,45","69,25","62,25","78,25",MM
1803015224,"72,9","81,45",84,"64,15","81,05",,"86,9","93,5",88,"72,65","70,8","90,75","78,3","77,2","85,25","70,4","72,1","66,55","85,8",,"85,3",75,"76,2","80,8","76,4","67,2","89,5","75,9","80,1","83,05","78,1","83,45","85,2",89,"91,7","80,85",RPL
1803015227,"74,5","58,63","72,65","63,9","62,7",,56,"89,05","66,1","63,65","79,75","56,1","76,65","78,15","78,45","56,4","70,5","75,05","73,7",,"66,65","69,75","68,4","60,2","79,5","70,2",78,"74,6","77,5","70,2","76,4","63,75","81,9","71,5","74,5","63,2",RPL
1803015229,80,"69,15",,"78,5","86,85",,"63,4","72,5","81,4","74,65","76,8","75,8","81,4","85,3","80,4","80,85",88,89,"62,35","74,8","74,35","71,1","69,6","71,3",69,"69,3","66,1","79,5","73,3","78,5","78,8","85,45","68,6",78,"68,3","71,8",MM
1803015230,"56,4","71,8","81,45","77,75","80,35",,"84,9","93,5","83,75","75,65","73,45","71,1","72,65","69,75","70,85","74,2","68,5","81,05","76,1",,"80,4",85,"76,2",95,"75,7","65,9",82,"84,25",64,"68,15","75,9","68,35","59,9",80,"80,25","83,3",RPL
1803015231,"56,4","76,3",,"56,25","42,63","95,7","80,3",,"41,25","77,25","56,2","68,2","57,5","60,03","67,25","41,2","74,7","46,25","49,68",,"80,2","57,2","76,2","57,1","71,45","74,35","65,9","77,2","68,05","83,2",74,"58,4","81,5",60,,"77,5",Jarkom
1803015235,"83,3","83,55","90,15",84,77,,"80,05",78,"76,4","68,98","87,1","78,45",89,"80,45","75,4",92,"84,5","87,1",74,,79,"77,2",81,"63,28","72,65","94,95","90,3","82,7","68,05","66,25","74,15","70,25","93,7","74,6","85,25","87,15",RPL
1803015237,"58,9","58,1","88,2","72,75","84,1",,"64,65",93,"83,95","68,1","77,65","69,3","71,5","81,5","82,75","76,4","56,2","81,85","66,8",,"81,5","91,5","76,2","95,6","78,45","68,65","82,45","80,2","64,4","68,55",89,"70,65",68,73,93,"80,2",RPL
1803015240,72,"59,63","71,65","60,95","71,3",,"62,15","83,7","75,2","65,85","80,05","70,7","57,5","82,2","74,45","77,15","72,35","86,95","67,05",,"71,15",62,"69,6",68,"69,35","78,4","80,35","64,1","56,5",71,"79,25","63,75","68,1","78,2","70,95","82,45",RPL
1803015242,"63,3","56,3",,62,64,"95,45","61,7","90,3","74,1","62,2","79,45","58,6","76,7",77,"73,5","76,6","68,85","69,9","80,7",,"74,5","73,25","82,4","51,1","71,75","67,75","80,35",60,"62,6","72,7","68,65","58,7","59,4","68,6","63,6","80,95",Jarkom
1803015245,"69,4","76,15",,67,"56,75","94,95","80,1","90,15","80,2","69,3",79,"58,15","65,3",,"76,95","63,3","76,8","81,7","65,05",,63,"82,2","76,2","56,4","74,55","56,2","80,4","80,8","66,2",65,"78,7","66,45","68,7","74,8","53,2","77,9",Jarkom
1803015249,63,"63,6",,78,"80,8",,"63,7","92,7","84,7",69,"78,5","57,35","77,5","73,85","77,45","78,45","72,1","87,65","61,25","75,5","58,28","77,5","75,8","64,6","60,5","64,8","79,95","76,95","59,5",71,"80,3","75,45","80,9",78,"85,7","84,8",MM
1803015250,"68,5","56,95",,63,"80,65",,"57,9","72,5","71,5","67,4","76,5",56,"82,15","85,05","68,4","82,35","75,05","87,15","85,5","77,3","58,65","56,5",68,"58,25","62,95","78,55","68,1","74,1",67,84,"78,3","63,95","74,5","71,1","59,9","73,9",MM
1803015252,"68,7","88,3","69,1","72,4",68,,80,80,"81,2","73,65","80,5","77,05",81,"80,05",74,"80,2","75,4","67,93","84,25",,"93,8",86,"76,2","94,8","68,6","71,7",68,80,"76,4","88,15","80,4","68,05",68,"88,75","85,75","97,2",RPL
1803015254,74,"52,08","71,6",65,"70,45",,"68,05",78,"73,85","65,15","57,05","35,03","53,4",,"80,55","57,2","66,65","68,85","41,48",,,"71,05","70,8","56,55","51,23","85,3","78,5","59,7","61,9",85,"56,6","57,25","82,5","82,2","80,75","69,05",RPL
1803015255,69,"91,25","87,7","69,2","86,9",,"88,5","90,4","86,75","95,5",76,"96,4","80,6","81,5","84,05","77,4","63,3","81,1","84,2",,"85,5",86,"81,6","93,2","78,75",82,"84,3","78,4","66,5","82,3","80,2","92,25","82,6","87,3","94,2","85,7",RPL
1803015256,"68,9","68,2",,"66,5","87,8","95,2","62,05","92,4","81,7","65,65","84,05","78,55","77,8","74,5",80,"84,9","87,55","92,15","83,5",,"59,2","72,75","81,5","72,2","72,6","82,55","82,2",70,"56,1","87,7","77,7","75,25","84,75","80,9",91,"82,2",Jarkom
1803015257,"62,4","58,8","58,1","73,5","75,2",,"57,55","77,05","78,3","63,95",82,"57,4","56,65","68,75","80,45","56,6","61,65",82,"69,5",,"69,5",80,"80,2","27,28","70,15","68,4","56,4","79,1","59,5","69,95","65,6","62,45","78,9","65,15","42,9","56,4",RPL
1803015258,"60,3","66,3",,"65,25","71,45","70,5","57,75","90,95",67,"76,2","81,8","74,6","72,1","75,25","74,8",92,"66,2","80,25","81,8",,"74,8","65,2","76,2","78,5","68,25","68,15","82,15","72,6","80,1","71,75",74,"68,75",68,"71,55","86,7","79,6",Jarkom
1803015267,"72,7",70,,"66,5","80,3",,"56,45","92,25","86,75",74,90,"64,55","80,75","87,25","62,8","77,1","80,65","92,6",79,"83,45","76,45","93,8",83,"88,85","73,15","91,9","80,35","80,9","80,4",65,"77,3","58,25","80,5","84,8","74,5","84,6",MM
1803015269,68,"59,55","68,95","61,3","62,8",,"57,7","73,5",77,"65,95","81,3","63,95",92,"70,05","55,8","77,9","78,7","78,9","61,8",,"80,6","62,2","81,6","72,7","71,65","83,6","78,75","62,75","69,55","67,8","61,1","68,95","84,25","81,1",76,"73,6",RPL
1803015270,"64,9","63,68","68,45",65,"67,75",,"59,5","88,5",65,"64,3","81,55","71,3","57,5",,"72,55","59,5","67,5","72,35","81,9",,"56,4","80,75","65,35","68,7","78,75","63,6","77,8","56,3","64,6","62,9","78,75","68,2","61,4","74,2","56,4","75,75",RPL
1803015271,"58,6","57,1",,"66,5","8,28",,"56,05",68,"72,1","59,7","70,3","65,1","58,6","68,1",68,"38,3","62,7","80,05","10,75","68,25","1,4","18,75","49,5","25,13","70,8","63,9","56,1",77,"64,25","72,35","78,6","56,3","49,6","73,5","64,55","66,85",MM
1803015277,50,"58,9",,77,"53,23","95,7","57,8",80,"66,7","62,8","79,9","56,05","61,75",,"59,5","72,3","64,2",70,78,,"62,68",58,"58,5","59,5",70,"70,2","80,65","56,1","56,38","70,3","71,1","62,53","60,95","73,4","63,2","80,05",Jarkom
1803015280,"59,1",69,,"61,75","84,9","94,4",63,"92,2","80,1","76,55","73,35","68,1","77,6",82,"80,95","77,4","69,1","80,8","76,3",,80,"78,25","76,2","78,3","79,15","68,15","79,95","64,65","56,5","56,15",84,"69,5",68,"69,5","91,75","83,3",Jarkom
1803015293,"77,3","70,3",,"78,5","85,2",,"67,1",82,"76,5",85,"77,4","66,6",72,"88,05","70,75","85,7","84,35","70,75","65,4","77,7","77,05","70,6",75,"75,75","69,75","65,9","80,1","73,5",68,73,"75,85","75,45","69,6","77,7","74,9","80,7",MM
1803015303,"65,5","56,15",,"56,5","73,25",,"59,45","93,5","70,3","70,2","86,2","74,4","68,55","72,5","68,3","72,1","66,9","80,1","68,2","73,5","56,6","83,75","57,8","54,38","79,95","65,1",88,"72,6","62,8","67,5","66,05","68,75","75,1","80,55","76,5","67,9",MM
1903015001,"56,4","54,95",,"57,1","32,83","78,4","70,95",75,"80,2","48,3","80,75","71,25","62,4","75,8","75,55",71,"69,3","77,7","4,55",,"66,8","67,5",74,77,"76,2","56,2","80,7","71,5","68,5","67,6","58,4","54,08","69,1","78,5","50,75","76,95",Jarkom
1903015003,"56,1","56,1",,"50,2","68,05","89,9","86,45",73,"75,2","50,3",64,"57,8","76,2","80,1","81,6","76,1","83,9","81,5","51,5",,"61,1","61,6","60,2","71,2","76,6",56,"76,5","65,7","65,6",74,"75,2","59,9",70,"78,1","80,3","82,05",Jarkom
1903015004,"76,75","85,5",,"68,25",79,99,80,85,"81,3","88,45","80,75","69,5","78,1",86,"81,3","78,7",87,87,"83,2",,"75,15","89,5","81,75","88,8",80,"84,5",84,90,"76,7","68,45","96,25",71,"74,6","82,1","76,1",85,Jarkom
1903015007,"66,23","60,35",,"62,35","39,2","96,65","71,45",77,"82,15","68,3","78,75","68,5","52,08","78,6","76,25","74,7","63,2","78,7","37,05",,"74,3",42,71,"56,2","75,8","72,6","77,6","87,5","73,25","69,7","68,6","65,55","73,8","78,8","60,25","76,65",Jarkom
1903015008,"81,5","87,1","90,25","63,7","70,1",,"71,75","77,5","80,7","80,4","79,05","70,5","76,3",80,"74,6","82,3","89,9","80,2","80,55",,"77,7","89,3","71,7","81,1","81,2","81,9","81,2","85,6","78,9","81,9","74,95","83,65","81,9","82,3","81,7","77,25",RPL
1903015009,56,56,,"65,2","58,8","82,3",67,"75,5","80,15","46,6","82,5","56,3","63,8",81,"80,55","62,8","72,7","78,7","47,45",,64,"58,2","56,2","64,6","85,4","67,3","79,1","74,4","87,3","78,2",82,"74,65","70,3","80,55","63,75","72,75",Jarkom
1903015010,"59,65","60,05",,"65,1","55,5","97,15","77,2","72,5","77,2",56,"80,05","45,25","45,25","77,1","74,25",60,"72,4","78,4","67,2",,"57,7","11,9","75,75",66,"80,4",56,"82,4","75,75","74,8","67,4","78,15","59,15","61,5","30,6",67,"78,9",Jarkom
1903015011,"65,45","48,5",,"68,75","61,23",,"74,5",74,67,"67,35","79,2","55,55","48,4","78,5","72,65",45,75,"80,2","64,2",69,"57,3","68,8","60,7","45,45","78,9","78,4","80,2",81,"72,7","66,45","71,95","75,45","79,8","78,6",62,"80,4",MM
1903015012,"71,7","63,25",95,"66,75","78,5",,"76,15",72,78,"77,5","81,5",70,"68,8","80,9","80,2","70,5","88,5","83,2","79,5",,"75,5","65,7","64,6","71,9","82,2","81,8","78,8","91,2","80,3","71,7","80,95","75,75","72,4","84,5",70,"80,4",RPL
1903015013,"56,5","62,25",,"63,45","56,6","97,15","86,2","77,5","81,2","66,3","80,4",67,"76,5","82,2","74,5","82,3","80,1","82,5","68,25",,80,"88,4","80,1",90,"81,1","88,3","81,8","79,6",80,"68,1",84,"71,35","79,9","80,3","80,75","80,1",Jarkom
1903015015,"75,5","87,05","94,15","65,2","73,2",,"66,75",72,"80,75","68,6","80,75","60,8","66,8","84,8","76,75",84,"88,6","82,7","81,7",,"89,4","74,4","81,5",71,"81,8","79,8","83,2","87,2","82,1","80,05","85,15","78,05","79,8","81,5","78,75","80,4",RPL
1903015017,"93,9",61,,"71,25","77,5","97,15",64,74,85,71,"81,7","81,45","89,35","83,6","76,25","85,4","90,6","83,4","89,1",,"86,1",86,"86,3","81,55",79,"71,25","87,5",87,"87,3","78,4",89,"75,7","70,3","88,7","71,7","80,55",Jarkom
1903015018,"71,1",56,,"65,25","66,5","92,65","69,95",74,"82,3","68,3","86,75","65,1","91,35","82,5","76,25","82,2","81,8","83,4","83,2",,"80,3",82,"76,6","77,45","78,5","77,2","76,6","83,2","71,6","71,3","88,3","75,45","85,6","81,7","69,6","80,25",Jarkom
1903015019,"68,7",57,,"57,5",61,"97,45","72,5",68,"70,5",72,"62,75","57,85","69,5","80,3","78,4","73,7","84,2","83,9","78,7",,"30,95","71,5",58,"75,5",70,"82,2","75,3","71,95","65,5","68,2",70,"59,55",71,"69,5","61,4","79,5",Jarkom
1903015020,"73,35","56,23",,"62,2","53,3",,"82,25",76,"82,8","60,63","80,25","77,25",60,"78,3","76,95",81,57,"74,1","59,73","68,75","72,5","68,75","71,7","82,6",77,"84,8","78,9","75,5",65,"66,35","68,5","56,6",82,"78,6","61,5","75,45",MM
1903015025,"60,7","68,65","70,8","54,5","24,05",,76,72,"67,3","69,2","80,75","56,1","73,7","77,7","76,55","49,1","76,7","81,4","75,7",,"47,6","42,9","58,2","41,8","75,2",80,78,"70,9","65,1","68,2","80,3","67,25","68,2","78,3","56,2","79,05",RPL
1903015027,56,56,,"62,3","57,05",,"82,85",77,"80,8","58,98","80,95","61,75","60,4","81,2","74,25",78,"82,4",81,"64,15","69,05","76,7",80,"76,1","63,95",80,"83,5",83,82,"68,55","79,55","81,6","75,95","80,6","78,25",77,78,MM
1903015028,"69,25","56,1","88,25","68,25","54,63",,"74,75","77,5","81,8","81,4","78,75","65,25","82,55","77,7","76,25",81,"85,3","80,6","66,68",,"80,4",83,"67,5","83,85","81,1","86,5","79,2",81,"69,75","68,1","68,1","75,95","90,9","79,6","78,75","78,6",RPL
1903015029,"76,55","66,5","85,2","66,75","71,15",,"63,5",77,"77,5","89,2","77,8","68,25","87,65",81,"74,25","80,1","82,6","80,4","80,1",,"85,3","86,5","74,3","86,65","88,3","81,1","80,1",81,"84,5",77,"86,2","76,7","81,1","79,7","68,2","80,25",RPL
1903015031,"57,4","68,9","81,1","60,5","68,5",,"63,75",74,"72,9","61,2",80,"74,2","64,5","81,2","78,15","80,7","64,2","82,2","72,2",,"92,9","51,9","56,8",68,"75,8","68,5","79,2","77,5","86,5","76,95","86,6",68,"70,3","78,6","59,2","78,6",RPL
1903015034,"71,45","86,3",,"68,75",68,"95,4","68,2","77,5","80,45",99,"80,95","72,75","77,15","78,5","72,25","68,2","79,6","78,9","78,1",,"69,7",76,"80,55","51,65","81,6","79,2","79,7","89,5","71,75","76,95","75,9","77,95","80,2",86,70,"77,7",Jarkom
1903015038,66,"58,35",,"62,2","56,85","90,9","72,8",72,"75,5","64,5",79,"67,6","79,9","76,5","72,25","74,8","81,6","72,9","65,4",,"56,2","78,6","71,7","53,15","76,9","87,8","79,2",81,"65,6","68,4","75,9","72,7","69,8",72,"74,5","77,55",Jarkom
1903015039,"68,7","71,5",,"50,2","56,75","92,15",75,72,"67,6","57,9","79,25","72,4","61,5",42,"77,9","62,3","78,6",80,"70,4",,"56,6","71,5","49,3","82,4","73,3","80,3","77,9",86,"65,5","66,95","84,4","70,35","70,4","77,5",58,78,Jarkom
1903015042,74,"72,3",,"72,75","56,85",,"68,25",72,"80,6","68,2","81,25","70,5","59,7","80,8","80,8","80,1","75,2","76,9","59,6","68,3","80,2","62,4","63,4","68,8","82,1","77,7","80,8","76,1","73,25","68,95","80,6","75,25","75,9","80,05","70,5","80,4",MM
1903015043,58,"60,1",,61,"40,7","85,9","65,15",72,73,"77,4","80,05","58,78","76,5","80,9",79,"67,6","72,2","78,4","79,4",,"47,53","74,8",71,"81,3","76,5","81,2","80,7","85,6","86,7","69,55","76,75","61,9","80,5","81,8","61,8","80,4",Jarkom
1903015045,"63,7","72,35",82,"64,1",69,,"65,05","75,5","80,5","70,53","80,55",71,"71,6","78,8","75,05","80,3","67,4","76,1","71,6",,74,"78,1","45,1","70,75","77,6","68,05","77,1","70,5","86,5","75,85","86,7","75,7","69,55","77,7","60,2","77,85",RPL
1903015049,"56,9","60,5",,"61,6","48,75","85,9","70,55","22,5","80,8","68,4","73,8","69,7","76,5","57,1","79,75",77,"55,2","77,45","39,8",,"75,6","42,8","62,8","43,6","72,95","69,7","82,2",71,"74,05","68,1","78,7","70,3","65,2","80,3",68,"80,7",Jarkom
1903015051,"86,5",83,"92,6",69,"77,5",,69,77,"71,45","59,3","81,25","66,45","67,4","83,6","81,7","75,4","83,3","83,7","80,2",,"65,3","80,7","63,2","80,8","84,8","68,05","79,2",88,"86,5","80,55","81,85","69,1","70,75","93,5",73,"80,25",RPL
1903015053,"90,15",59,"90,5","72,25",72,,"91,95",75,"81,8","88,75",82,"82,7",80,"85,2","81,5",75,"89,3",77,"81,7",,"65,4",86,"64,15",88,"76,2","74,4","82,65","93,25","74,4","65,7","93,15","76,5","80,4","86,4","80,1","81,3",RPL
1903015054,"76,8",57,86,"72,25",68,,"77,5",75,82,71,"80,4","84,15","88,6","85,9","70,25","82,1",81,"78,25","63,5",,"89,4",82,"83,5","96,2","73,7","81,4","78,15",71,"88,8","68,45","86,6","74,95","76,8","84,2","80,1","83,1",RPL
1903015055,57,56,"71,4",56,"63,4",,"68,15","68,05","77,5","61,7","78,5","69,2","71,5",80,"79,4",61,"69,9","73,75","35,23",,"55,85","64,5","68,4","68,1","71,8","56,4","87,25","71,5","60,25","68,1","79,35",64,"64,2","78,3","69,7","79,2",RPL
1903015056,"77,5","68,35",,"67,3","79,1",,"80,4",75,"83,9","80,3","79,7","65,25","70,2","83,55","77,3","80,7","75,4","71,2","62,7","74,75",83,"89,7","71,7","64,7","74,2","77,2","80,4","71,9","73,5","73,25","79,7","68,1","77,8","81,7",84,"81,9",MM
1903015060,"74,6",56,,"68,75","65,25",,"67,25","71,5","73,1",65,"79,9","81,5","78,65","80,4","74,25","80,2","76,2",79,"78,6","68,2","73,2","82,5","80,2","65,75","73,7","68,05","80,4",84,"80,3","78,1","85,8","75,2","68,75","79,6","80,2","77,7",MM
1903015061,"63,1","59,85","80,75","61,35","72,25",,"77,25",75,"78,2","57,8",80,"60,83","57,88","80,7","74,25","85,2","77,9","75,2","69,7",,"80,2","47,5","80,2",75,"78,6","56,6","81,9","76,25",56,"69,5","81,2","74,3","58,2","80,05","68,5","76,95",RPL
1903015062,"80,3","80,35","93,05",68,"78,45",,"84,5",77,"81,8","89,9","77,3","81,2","75,8","82,25","80,3","84,7","89,5","80,2","71,25",,80,74,"67,95","84,5","75,7","75,9","85,05","75,7","75,9","68,95","73,5",80,68,"77,3","76,25","80,7",RPL
1903015064,68,89,"87,95","69,1","69,85",,"73,4",79,"81,6","75,75","81,3","85,25","83,5",82,"78,25",80,"59,6","77,45",76,,"82,2",70,76,84,75,74,"84,6",84,"80,1","78,1",80,"81,1","83,8","80,9","78,75","81,5",RPL
1903015066,"74,8",58,,56,"70,8","96,65","66,45",77,81,"81,4","78,8","56,55",79,"83,6","79,05","68,1","81,4","80,2",77,,"80,5","86,7",85,90,"72,95","81,9","80,25","80,1","86,5","86,55","78,4","83,1","79,8","83,3",80,"80,3",Jarkom
1903015068,"78,4","78,5",,"48,4","16,38","83,05","82,3",73,"67,3","48,9","54,3","56,3","58,7","45,65","77,15","45,8","63,1","75,75","59,1",,"19,4","58,2","76,8","68,1","72,95","73,1","77,7","73,9","66,8","60,1","68,7","68,35","75,7","78,5","58,7","76,9",Jarkom
1903015069,"68,15","90,25","87,7","69,85","69,4",,"79,5",73,"82,3",95,"79,9","71,8","76,8",78,"85,7","93,5","83,3","76,2","86,35",,"86,5","76,5",76,"68,7","76,2","80,2","84,6","79,3","83,6","68,95","78,7",78,81,78,72,"80,9",RPL
1903015070,"91,05",62,"73,9","81,25","82,25",,"81,75",73,"84,05","92,2","80,6",87,"83,2","89,25","70,25","80,5","88,2","77,45","77,6",,"83,5","89,4","91,7","92,3","73,75","77,8","81,45","86,5","80,3",79,"73,5","74,55","85,4","79,1",89,"80,3",RPL
1903015072,"71,6",64,,69,"77,3","94,2","73,2",75,80,86,76,"56,85","88,8","83,85","80,25",76,"82,7","76,2","62,55",,71,87,85,"58,8","76,2","79,9","81,75",86,"85,3","81,8","82,95","78,95","79,2","81,5","69,7","80,9",Jarkom
1903015074,"53,05","62,5","68,2","57,7",64,,"59,5",73,"76,3","45,2","66,9","65,5","66,4","78,25","68,1","58,6","67,4","71,2","46,2",,"51,6",62,"45,5","62,9","76,2","67,55","80,25","83,5","87,3","77,1","80,25","56,45","68,75","79,05",60,"78,3",RPL
1903015075,"56,05","62,5","68,6","63,75",66,,"82,85",73,"71,95","56,3","66,4","56,05",67,"80,75",79,"60,7","71,7","72,45","79,1",,"70,5",48,"75,5","64,5","72,95","71,6","80,25","74,7",56,60,"77,25","58,3","73,3",77,"70,75","77,5",RPL
1903015079,"71,25","55,98",,"66,5","61,8","97,9","62,25",72,"80,2",63,"76,8","59,43","63,45","80,7","76,25","84,5",80,"72,25","61,7",,"78,9","57,55","71,7","62,8","72,95","80,5","80,85","81,5","84,3","58,05","78,45","67,65","79,8","80,25","70,5","77,7",Jarkom
1903015080,"66,8","80,75",,"63,7","57,2",,"62,95",70,"77,5","59,4","71,9",62,"63,3","80,3","76,25","75,5",82,"77,45","65,5","68,05",76,"69,7","49,4","69,1","74,2","67,55","80,25","82,2","87,3","76,3",76,"72,55","68,75","81,75","70,9","80,7",MM
1903015086,"68,5","75,8","80,4",63,"81,05",,"77,1",77,"83,55",80,"79,7",82,"84,55","90,85","72,25",82,92,"77,75",81,,"85,5","96,8","80,2","88,2","74,2","78,9","81,15","86,5","71,25","86,9","83,75","75,6",80,"83,4","90,25","80,1",RPL
1903015087,"62,75","73,4",,"68,6","73,5",,"75,7",72,"80,3","78,55","73,9","78,5","80,8","82,7","76,25","69,4","83,3","76,2","57,98","73,5","66,9","62,2","71,5","68,5","76,25","74,7",84,"86,5","73,05","68,95","85,7","70,15","84,1","77,35","70,5","80,3",MM
1903015090,"65,05","75,05",,74,"54,23","95,4","67,75",70,"83,75",73,"79,7","75,8","57,2","78,95","74,25","80,5","67,4","77,45","48,35",,"75,8","83,1","61,5","62,3","74,2","68,05","80,4",82,"87,3","76,65","74,75","74,45","69,5","79,4",66,"78,1",Jarkom
1903015093,"63,15","86,55",,"66,25","75,5",,81,79,80,83,"81,1","59,5","74,5","83,55","76,25","74,6","77,7","80,25","62,35","78,15","74,2","86,4","67,5","68,3","72,95","78,6","81,75","77,9","82,7","68,2","81,55","80,05","76,2","78,55",66,"78,1",MM
1903015096,"57,2","60,55",,"73,5","56,4",,62,75,"80,2","74,1","75,2","60,25",70,80,"77,5","76,7","80,4",83,"78,1","73,75","62,95","70,9","61,3","74,1","71,4","81,9","80,4","80,7","83,9","75,25","74,35","77,85","79,8","83,4","80,1","88,95",MM
1903015098,"68,4","74,8","87,6","62,2","54,35",,"77,25","80,25","80,9","59,2","79,6","61,55","72,2",80,"78,55","76,5","76,6","80,3","56,5",,"80,1","76,25","65,7","55,9","56,3","71,5","80,4","82,5","71,8","66,6",80,"60,1","81,7","84,05","64,5","71,25",RPL
1903015099,"66,7","92,3","93,95","66,25","70,95",,"78,5","76,75","80,05","87,9","80,6","61,65","74,8","73,25","80,9","71,4","82,2","86,9","55,13",,"74,2",75,"68,5","76,9","74,15","76,9","82,95","81,7","73,4","68,2","84,2","76,25","77,2","76,3",68,"87,35",RPL
1903015102,61,"63,45",,77,64,"95,4",60,"68,5","69,5",63,"74,9","57,25","65,5",76,"78,7","56,2",81,"86,7",61,,"68,2","48,9","68,8","69,1","64,6","82,6","79,35","73,4","83,1","66,85","84,9","79,6","79,1","77,7","56,1","71,8",Jarkom
1903015105,"69,9","85,05","95,15","70,6","62,5",,"89,15","89,5","82,9","71,7",81,"74,1","76,9","81,25","78,3","90,5","85,2",88,"83,1",,"83,6","90,7",68,"88,2","76,2","79,6","83,4",90,69,"68,2","76,8","75,7","82,1","84,9","64,5","84,2",RPL
1903015107,"57,7","64,5",,"65,25","59,58",,"68,05",81,"81,2","62,3","82,2",58,"56,45","72,25","76,25",81,"77,7","84,4","56,58","68,05",82,"59,35",61,"70,1","59,9","84,5","83,1","78,75","62,25","66,75","68,25","64,4",69,"75,7","60,5","77,4",MM
1903015108,"73,4",74,"74,1",73,"59,3",,"81,55","74,75","80,3","83,8","78,9",73,"83,8",76,"74,25","81,7","80,6",88,"56,1",,80,"81,5",74,"48,75","68,35",82,"80,25",78,64,"68,95","82,45","74,95","74,2","81,05","73,75","76,8",RPL
1903015109,"76,7","58,2","94,4","59,6","63,25",,"68,25",74,"80,2","68,6","84,2","62,75","74,1","74,75","81,6","71,6","83,7","84,7",78,,"74,3","64,5","74,2","88,6","74,8",77,"80,7","80,75","85,9","79,75","87,15","69,8","80,5","79,8","62,2","94,6",RPL
1903015110,"69,6",85,,"65,1","70,95","92,95",69,82,"78,25","62,6",83,"75,2",82,86,79,"72,2","89,1",87,"64,53",,73,91,"81,2","87,9","54,35","69,75",85,"83,5","79,5","74,1","80,55","73,4","68,75","79,3","69,25",87,Jarkom
1903015112,"84,2",68,"88,8","81,25","68,2",,"74,85","77,75",80,"72,25",76,"70,9","75,2",76,"76,7",82,72,"83,3","62,7",,"77,8","80,1","76,15","83,2","68,1",87,"79,35","77,3","61,2","63,8","79,2","80,05","77,5","81,5","68,5","85,1",RPL
1903015113,"52,8","58,1","73,45","65,25",66,,73,"76,75",80,"61,9","74,7","65,9",65,"69,3","78,55","76,4","73,9","80,55","70,4",,"62,5","56,8",62,73,"57,65","77,5","80,1","79,9","74,9","68,2","88,1","60,7","72,2",77,"51,63","72,4",RPL
1903015115,"69,2","56,45","84,35","61,4","12,5",,"57,6","69,5",75,60,"73,1","57,75",50,"71,5","70,25","69,5","65,4","79,8","75,9",,"58,6","45,3","71,7","42,3","54,6","42,3","74,4","76,75","56,35","67,7","88,5","69,3",51,"76,2","50,2","74,15",RPL
1903015116,"72,1",84,"91,3","70,3","76,85",,"65,25","78,5","75,5","68,4","78,4","56,15",69,"74,75",76,"80,3","82,1","89,85",79,,"68,4",76,"77,6","70,3","64,5","80,5","80,55","83,4","88,9","71,25",84,"75,75","80,5",84,"75,25","81,4",RPL
1903015117,"72,5",90,"92,3","69,25","74,7",,61,"73,75","83,5","83,9","82,2","65,5","64,85","80,2","76,25","70,3","75,8","80,95","72,2",,89,"87,8","76,5","73,7","63,35","68,5","80,85","82,5","87,3","75,95","75,85","78,6",68,90,"83,25","88,45",RPL
1903015121,82,"82,95","93,95","70,4","80,2",,"78,7","85,5",82,"87,8","72,3",66,"66,4","74,75","78,25","80,1","87,9","89,3","70,9",,"75,2","85,6","79,2","63,35","76,3","82,4",84,"85,1","80,45","68,95","88,1","75,45",82,"77,2","62,8","89,65",RPL
1903015122,"58,5","81,55","87,65","61,9","69,75",,"67,7",78,"73,8","82,7","77,5","57,5","80,2","74,75","72,25","65,9","71,6","81,6","73,5",,"56,4","45,2","75,4","57,9","65,45","79,8","80,1","81,5","85,1","64,65","93,5","68,2","79,1","79,2","69,8","84,9",RPL
1903015124,"85,1",51,,66,65,"96,2","71,5",71,66,"92,15","58,1","55,15","75,8",72,"79,8","68,1",72,"53,2","74,8",,"56,5","55,9","91,4","70,7","27,95",52,"81,75","77,5","71,8","64,2","87,1","68,15",72,"76,9","47,2","81,5",Jarkom
1903015125,84,58,"85,5","73,5","82,75",,76,"85,5","80,8","78,4",89,"85,1","78,3","75,5","82,8","74,5","89,4","91,35","73,9",,"80,3","89,5","80,6","89,7","76,1","85,2","81,15",97,"64,7","68,2","91,1","80,1",76,84,"80,1","91,55",RPL
1903015128,"56,1","73,3","92,35","68,2","61,05",,"77,6","88,25","80,15","57,8","79,7","70,25","72,5","70,1","80,6","68,8","68,2","87,1","66,9",,71,"62,4","68,1","70,5","74,45","90,2","77,85","75,1","71,8","68,95","83,7","71,2","77,8","78,6","63,25","82,1",RPL
1903015130,"90,4",68,,"73,75",80,"96,65","67,95",79,"84,2","99,3","86,2","87,5","72,5","83,7","86,2","81,3","83,3","83,2","87,6",,"86,4","71,2","80,45","71,3","85,6","69,65","81,5","86,2","80,3","76,2",89,"82,85","69,5","85,1","80,2","80,7",Jarkom
1903015131,"70,5","66,25",,"65,25","64,38",,"69,4",79,76,"65,3","78,3","67,9","62,53","73,5","74,25","73,6","80,9","87,7","76,9","70,8","61,85","63,95","66,4",63,"56,25","82,9","80,4","76,75","61,8","62,5","76,05",71,"85,4","79,7","56,2","86,9",MM
1903015132,"77,5",69,"87,95",61,"80,3",,76,76,"79,5","71,4","80,4",75,"88,6","74,65","74,25","80,3","82,2","91,3","84,9",,"91,7","83,2",86,"77,9","86,25","84,8","79,35","88,75","59,8","68,2","76,15","74,4",79,"88,5","81,25","92,4",RPL
1903015133,"69,2","58,38",72,"62,7","71,7",,"79,2",79,80,"64,2","79,5","61,75","63,23","70,7","74,25","75,2",82,"86,6","62,35",,"61,8","60,85","71,7","77,5","63,85","78,6","80,4","76,75","68,2","69,9","84,5","67,25","75,6","78,8","72,95","86,85",RPL
1903015135,"68,4","74,35","68,6","68,35","54,43",,"73,75","81,25","82,9",66,"76,8","65,05","67,65","70,5","72,25","74,7","82,2","84,4","56,2",,"77,8",84,"68,75","77,3","71,65","73,6","78,15",79,"68,05","68,95","73,5","76,2","86,3","78,9","64,25","87,45",RPL
1903015138,"88,6",81,"83,5",76,"77,2",,"94,15",96,"81,1","82,2",86,"88,25","93,95","80,55","74,25","85,8","93,5","95,1","83,5",,"81,3","93,2",96,"97,5","82,55","89,4","83,7","83,75",79,"73,7","81,2","82,75","91,2",84,84,"92,95",RPL
1903015141,"71,75","90,8","71,3","66,6","76,5",,"82,2","95,45","73,85","90,7","85,2","66,25","81,6","87,2","76,95","80,1",87,"86,75","80,7",,86,"82,5","67,5","88,8","74,35",86,"82,2","81,25","71,55","68,95","80,35","73,7","88,9","83,6","74,5",83,RPL
1903015142,"71,85","62,25","68,05","66,75","65,08",,"69,55","94,2","81,8","66,25","87,7",58,"76,2","86,35","76,75","83,1",73,"81,2","62,25",,"81,6","70,5","75,9","78,5","57,65","81,2","83,3","83,5","87,3","81,8","84,55",74,"80,5","78,45","70,5",91,RPL
1903015147,"63,65",89,"68,95","69,25","80,85",,"84,65","95,45",85,"95,75","85,4","70,25","74,5","87,1","77,25","84,2","87,1","90,2","81,1",,"82,9","81,3","67,5","78,5","76,1","74,2","81,8","81,6","68,05","68,95","88,6","81,3","91,1","79,4","60,2","89,15",RPL
1903015148,"48,7","68,85",,"60,5",68,"68,8","60,25","91,7","78,7","56,2","85,1","58,4","53,58","73,1","76,25","59,6","61,6","71,95",53,,"61,4","45,5","58,1","56,2","42,65","80,6","78,3","69,45","86,9",64,"81,65","56,1",77,"78,6","68,9","74,2",Jarkom
1903015150,"71,9",64,,67,"68,78",,"95,85","95,45","82,2","84,3","86,8","80,2","76,5","87,85","80,45","88,5","87,4","86,65","80,05","82,6",87,"71,2","81,5","82,8","71,85","74,3","81,9","91,4","77,8","70,6","70,75","77,8","79,1","79,2","83,75","96,7",MM
1903015151,"82,75","68,1","91,3","59,2","63,05",,"76,4","91,7",80,"74,2","87,4","56,2","56,65","81,35","70,25","74,6","88,6","83,1","74,8",,86,"66,3","74,2",77,"69,1","76,2","79,4","81,5","76,7","68,95","85,1","73,35",79,"79,6","73,3","81,45",RPL
1903015157,"82,8","68,5","93,2","64,4","69,15",,"90,85","95,45","80,7","81,4","87,4","68,05",75,"88,35",83,84,"89,5","86,35","81,25",,81,"85,2","74,2","76,2","72,05",82,"82,2","83,1",69,"77,5","86,95","82,75","77,1","88,25","90,25","93,45",RPL
1903015158,"63,7","56,35",,"75,5","60,8","83,9",73,"68,45","70,55","47,5","85,5","38,68","68,3",70,"76,5","53,6","59,9","77,5","47,7",,"59,5","52,2","60,5","44,5","34,4",71,"81,6","68,1","76,7","68,2","79,2","47,95","80,2","77,2","61,7","68,9",Jarkom
1903015159,"72,25","97,8","96,65","83,6","82,75",,"92,4","96,25","79,5","99,5",88,"81,5","89,25","90,05","74,25","80,7","95,1",98,"90,2",,"84,4",92,"72,5",91,"90,65","78,3",89,"94,5","80,1","83,6",81,"79,25","83,6","86,5","80,75","92,3",RPL
1903015160,"68,65","46,2","93,35","66,25","60,15",,"87,65","95,45","82,35",81,"85,4","77,5","77,5","82,6","74,25","76,3","92,8","83,95","80,25",,85,"72,5","73,4","82,7","69,85","85,6",81,"81,5","64,35","68,95","74,5","78,05",71,"83,8","77,75","68,15",RPL
1903015162,"68,5","72,05",,"74,5","56,85",,"62,5","94,65","72,9",80,"87,1",62,"69,9","83,35","77,95","80,6","83,6","86,65","74,9","77,7",75,"66,5",80,"78,4","62,7","65,25","81,6","70,7","80,3","75,65","76,5","68,25",68,"78,6","68,2","83,95",MM
1903015164,"64,2","56,1",,"68,5","61,48","95,4","73,5","89,65","81,8","58,33",84,"59,18",75,"81,35","77,95",80,"67,8","76,15","44,33",,"76,4","56,85","65,2","63,6","41,8","83,8","75,5","71,4","76,7","68,45",68,58,"78,4","77,4","77,25","83,85",Jarkom
1903015165,"56,9","61,7",,"63,5","56,95","95,4","68,6","80,1","76,75","61,05","81,8","57,5","72,5","69,4","78,5","41,8","31,8","69,35","42,53",,"68,45","63,8","68,7","57,4","56,15",64,"79,1","69,3","59,05","71,9","77,55","45,5",62,"78,8",60,"64,35",Jarkom
1903015166,"94,35","75,5","94,4","72,75","91,9",,"90,6","95,45",81,"99,25","86,8",85,"91,95","87,55","74,25",77,"91,1","90,95","86,3",,"74,95","85,4","94,3","80,1","71,75","90,2","80,6","78,75","80,35","67,7","96,8","78,5",92,"83,2","80,6","95,5",RPL
1903015169,"68,5","56,75",,"51,3","71,55","94,15","81,2","92,95","73,75","68,3","84,7","56,4","46,8","83,15",81,"68,2","65,9","77,75","59,5",,"75,2","68,1","69,3","60,8","62,25","59,2",80,"73,1","67,4",61,"77,8","72,45","66,8",75,"60,75","81,2",Jarkom
1903015170,"59,4","57,7",,"58,4","57,75","95,4",70,"68,45",68,"56,78","83,5","39,53","61,5","72,25","78,2","56,7","29,3",76,59,,"57,9","62,1",56,"19,9","40,45",73,78,"63,1",58,"68,55","81,5","47,25","78,6","78,2","45,2","63,4",Jarkom
1903015171,"56,75","65,45",,"63,75","68,35","84,65","60,65","68,8",73,"63,05","83,1","60,25","70,3","77,3","77,8","56,3","82,7","64,7","51,9",,49,"58,6","47,3","39,85","36,2","47,6","77,8","72,8","56,1",54,"84,1","76,1",76,"75,1","37,5",61,Jarkom
1903015172,"65,15","59,95",,"66,25","41,3","95,4","74,35","95,05","79,05","65,15","84,1","60,5","52,15","77,5","74,25","80,7","59,5","67,45","50,53",,"75,2","58,1","75,1","56,1","45,1",58,79,"69,5","56,1","69,2","69,5","70,9","70,3","78,1","61,5","67,25",Jarkom
1903015177,"58,25","56,05",,"63,5","68,3","95,4","71,2","69,65","77,25","64,05","83,7","65,5","51,73","77,1","69,45","80,4","71,4","84,75","76,1",,"76,9","68,8","56,4","48,75","56,3",66,"78,8","86,5","68,35","69,45",79,"73,95","63,8","83,8","77,25","78,3",Jarkom
1903015178,"74,3","51,5",,"67,75","70,4","96,65","79,1","69,65",66,88,"83,5","63,05","50,6","70,1","76,65","59,1","76,2","74,45","68,6",,"68,2","69,5","83,85","70,3","53,2",71,80,"87,5","58,58","68,95",87,"56,85","69,8","77,8","44,98","71,45",Jarkom
1903015179,"74,8","87,6","78,1","70,38",71,,"73,1",83,"80,7","68,6",81,69,"88,05",85,"80,25","81,6",89,"84,5","83,65",,"78,2",80,"86,5","73,6","72,65","80,5",82,86,"85,5","78,1","78,85","76,25","81,9","80,15","82,5","86,5",RPL
1903015181,"83,5","80,55",,"69,4","74,75","94,6","80,9","95,45","80,8","82,4","86,8","69,35","70,3","87,1","79,2","77,5","93,5","87,9",74,,"77,35","69,5","70,8","65,4","68,65","75,1","81,6","92,5","65,6","62,5","98,55","72,05","80,8","78,6","74,6","86,75",Jarkom
1903015184,"70,3","80,9",,"66,75","67,2",,89,"92,95","81,3","86,35","84,3","60,05","76,5","88,9","76,25","76,2",83,"77,25","68,6","75,75","76,2",76,"88,2","57,1","59,95",83,"80,4","74,3","58,8","68,55","72,3","71,75","75,1","77,3","75,25","89,35",MM
1903015185,"64,6","57,5",,"66,75","59,03",,"65,55","94,2","82,7","68,5","82,1","64,5","80,35","84,7","74,25",80,"88,8","87,5","50,85","69,6",77,"74,7","72,8",73,62,84,81,"81,25","80,3","76,9","70,5","72,15",68,"81,7","68,25","74,35",MM
1903015186,"69,7",71,,71,"68,7",,"90,75","95,05",79,"75,1","86,9","72,45",65,"85,95","83,8",87,"83,4","83,75","77,2","80,35","76,5","90,7",73,"71,1","63,3",89,"83,6","80,1","71,8",69,"74,7","76,8","80,3","78,4","83,75","81,5",MM
1903015187,"70,9","80,75","72,05",59,"71,65",,71,"92,95","80,9",71,"82,1","64,15",58,"83,1","78,25","83,7","81,5","76,25","70,1",,"84,4","61,85","45,3","82,8","57,7","69,8","82,4",81,"76,7","68,55","77,9","75,05","75,6","78,8","65,75","80,6",RPL
1903015191,"77,1","51,7",,"67,6",69,,"72,6","95,45",80,"65,1","82,6",61,77,81,"76,25","83,4","84,8","76,25","64,65","75,45","80,8","81,5","80,1","78,05","76,2","70,2","87,25","78,5","60,5","67,7","76,2","74,45","76,2","80,1","68,25","81,8",MM
1903015192,"50,7","71,45",,76,"69,05",,"64,75","68,05","80,3","61,5",79,"56,35","56,5",80,"78,25","65,8","72,6","76,25","34,23","71,75","74,2","76,5","36,7","58,1",43,"80,5","74,25","77,1","80,7","60,65","82,3","73,7","78,4","78,3","68,9",82,MM
1903015194,"71,5","84,55",,"70,4",80,,61,"84,65","74,75","76,9","81,4","81,5","89,9","80,1","78,5","74,7","89,1","78,25","77,6",74,"91,2","89,5","75,4","85,9","72,5","82,7",86,"72,5","80,3","76,25","90,4","69,1",68,"93,5","66,75",81,MM
1903015195,"57,45","65,9",,"66,1","69,2",,"88,85","70,45",80,"65,5","81,8","57,05","75,5","80,45","79,3","71,8",87,79,"60,13","75,5","67,7",82,"49,3","81,6","72,5",72,"81,55","89,5",65,"62,8","81,8","74,1","78,2","79,75","70,5","82,2",MM
1903015197,80,70,"88,65",71,"82,5",,"81,5","96,25","82,25","68,3","82,3","80,9","77,5","80,3","76,25","60,2","72,7","80,2",86,,77,"93,6","81,2","81,8","76,2","87,7",86,"80,9","85,2","68,95","83,5","81,45","70,4","81,3","60,25","81,25",RPL
1903015198,"75,7",74,"91,45",76,"81,3",,"85,05","91,7",83,"80,2","81,1",95,83,"80,35",80,"82,2",88,"80,25","87,2",,"86,8","90,3","71,2","91,4","74,2","86,2","87,25","90,6","80,3","80,2","88,5","77,7","80,6","84,1","86,7","83,9",RPL
1903015200,"61,8",62,,70,"61,25",,"59,43","91,75","78,8","64,83","80,2","57,75","64,2","80,35","78,25","68,2","79,5","72,5","75,1","71,55","80,2",84,"68,3","56,65","73,7","58,75",86,76,"56,45","67,7","81,75","74,7","63,63",75,"65,25","79,95",MM
1903015204,"56,6",57,,"74,5","76,05","95,4",80,"69,2","80,4","71,3","78,6","76,75",82,"80,3","76,7","80,3","73,1","76,25","84,6",,"84,3","86,4","63,8","93,4","72,15","74,2","87,25","78,6","80,2","68,55","85,2","73,25","72,5","80,8","80,2","79,55",Jarkom
1903015209,"63,4",63,,"67,75","64,45",,62,"96,25","75,7","68,3","80,9",68,"70,8",81,"76,3","80,7","76,1","78,25","55,43","68,45",73,93,81,"85,7","72,9","83,2","84,4","79,7","87,7","76,65","78,4","72,15",68,"79,7","74,95",82,MM
1903015212,"57,5","72,5",,"67,3","69,2",,"76,5","95,45","78,95","68,6","81,2","68,05","69,4","80,2","81,35","71,4","81,9","79,05","80,75","68,05","73,4","76,2","73,1",81,"68,95","84,2","77,45","82,5","82,7","68,55","80,4","70,4","75,6","77,75","62,5",82,MM
1903015214,"64,03","62,4",,65,"65,4",,"62,15",68,67,"69,45","78,3","56,3","46,05","80,75","74,25","56,7",63,75,"62,45","69,7","72,5","53,1","58,2",58,"70,55","64,1",86,"72,25",62,"61,68",81,"59,05",74,"78,1","56,1","79,95",MM
1903015218,59,"86,05","95,6","68,1","71,1",,"79,15","75,45","73,25","85,5","81,7","67,95","77,15","81,05","72,25","68,3","87,6","73,25","81,6",,"87,6",82,"74,2","67,95","72,5","83,7","87,25","78,9",76,"65,7","75,3","73,2","71,7","80,8","65,25","81,7",RPL
1903015220,66,56,,"69,75","68,9","95,45","62,75","95,45","73,3","93,45","79,3","71,1","67,2","80,5","74,55","84,2","68,4","73,75","64,85",,"82,2","71,8","73,2","80,2",68,55,86,"75,1","48,2","68,8","78,35","72,55","73,7","55,2","76,7","81,75",Jarkom
1903015222,"56,9",59,,59,"60,3","93,35","72,5","93,75","73,5","69,2","80,4","56,25",45,"80,25","70,25","56,3","68,5","78,25","61,6",,"55,2","45,7",64,"50,7","68,1","56,5","82,8","76,75","56,2","66,95","81,25","62,75","70,4","80,1","57,18",80,Jarkom
1903015225,"58,65","69,05","89,85","65,1","74,5",,"59,25",70,71,"65,05","82,2",61,"83,2","80,2","76,25","71,1","90,6",77,"79,2",,"89,3","80,3","72,9","79,9",68,67,86,"78,5",56,"68,05","86,2","74,95",64,"73,1","53,75",80,RPL
1903015228,"65,6","80,5","80,2",80,"58,6",,"62,5","91,8","71,5",83,"82,3","97,5","68,45","80,5","76,25","71,1","67,6","73,75","76,6",,"67,68","78,1","69,7",61,"75,4","75,7","84,05",86,"81,5","76,55","81,5","75,95","68,25","80,6","73,4","80,05",RPL
1903015230,"64,8","64,3","85,9","55,9","77,2",,"59,55","72,95","71,75","46,1","79,3","55,55","62,15","80,8",68,"73,1","75,1","76,25",74,,"68,3","68,4",60,"71,3","72,4","84,8","83,15","83,75","81,3","71,55","90,25","75,05","80,5","81,3","79,5","79,75",RPL
1903015231,"61,45","68,3",,"65,1","37,58","95,85","70,95","72,95","82,95","61,05","79,2","57,5","67,1",80,"77,9","86,5",81,75,"36,1",,"76,5","82,25","52,2","87,8","70,5",71,"78,35","76,75","81,5","75,2","68,05","69,4",68,"77,3","55,5",82,Jarkom
1903015236,"69,1","58,55",,"59,2","74,45",,"74,5","71,7","78,7","69,93","77,7","62,83","74,45","80,25","70,25",65,"69,3",75,"68,15","82,05",61,87,"69,2","60,05","72,1","80,8","81,55","77,5","58,9","68,05","81,05","73,2",82,77,"66,5","80,05",MM
1903015237,"56,7","82,6","68,15","66,1","70,85",,"75,1","70,45","72,1","79,65","78,1","62,5","56,1",80,"72,25","70,9","73,8","74,5","80,1",,"72,2","75,1","56,3","33,65","72,1",56,"82,8",81,"69,48","66,93","74,95","73,2",81,"82,1","73,25","82,5",RPL
1903015239,"63,4",56,"92,65",70,"80,5",,"87,1","95,45","81,2","68,3","83,2","76,5","87,5","81,7",81,"80,1","92,1",77,"80,5",,"87,5","80,5","76,2","89,7",75,"90,6","87,25","81,75","66,2","68,9",87,"80,05",80,"78,5","87,2",87,RPL
1703015006,72,"56,35",,62,"83,05",,"58,2","86,4","87,8",68,"89,25","80,2","69,6",79,69,76,"89,25","91,1","59,7","85,2",78,"74,5","80,5","83,15","87,7","57,25","70,2","57,35","74,75",68,"71,1","56,45","70,3","90,6",78,"76,6",MM
1703015007,"31,75","52,6",,"58,65","66,8",,"56,75","86,7","65,75","64,13","56,35","54,43","73,55",,"77,15","57,1","52,1","64,73","61,55","68,1","55,92","50,18","74,5","60,5","70,6","62,75","71,6","56,9","65,3","58,1","60,45",,59,"79,1","80,25","56,4",MM
1703015023,"68,5","56,5",,"60,3","69,5",,"49,13",95,,58,"67,5","61,7","60,85","76,25","79,75","48,55","78,35",66,"71,2","68,45",60,"61,3","65,5","64,05","76,3","69,5","71,55","58,7","68,5","70,4","50,23","45,95","58,4",70,"57,6","69,93",MM
1703015029,70,"56,6",,"69,05","80,5",,"59,15","94,45",,"74,55","70,6","80,1","70,5",87,"80,5","75,15","78,65","90,9","74,4","70,55","68,1","79,5","63,75","74,75","87,7",70,"76,5",63,"64,75","74,3","83,4","79,4","71,5",81,"79,6","78,6",MM
1703015034,54,"56,05",,"54,15",29,,"50,98","60,75","60,95","59,8","62,53","38,5","48,6",,"78,2",58,"53,7","68,2","82,25","55,25","35,4","69,7","77,5","39,93","55,48","37,13","43,5","68,6","47,78","56,7",70,,"54,75","72,9","86,35","74,15",MM
1703015036,72,"73,55",,72,"72,5",,"65,45","56,45",,"75,75","71,15","84,45",58,"84,8","77,15","69,3","53,58","70,9","56,3","74,05","61,4","63,5","77,75","65,1","82,7","85,5","73,9","65,75","69,25","87,7","65,15","57,25","74,5","80,2",82,"62,8",MM
1703015037,"71,4","88,75",,69,81,,"60,45","84,5","57,9","74,15","75,1","65,15","57,65",83,"77,15","65,8","58,5","65,5","65,05","70,8","75,5","70,65",82,68,"75,2","67,08","78,45","70,7","75,5","75,5","64,75","56,4","74,5","69,8","65,15","69,1",MM
1703015038,64,"68,35",,"62,2",79,,"69,25","88,7","61,2",62,"64,5","74,2","60,35","79,2",75,"85,7","67,15","68,95","79,7","76,5","58,5","86,05","80,25","72,95","67,2",88,80,"64,75","63,25","76,2","63,4","68,35","84,75","83,6","83,25","73,5",MM
1703015048,"59,5","68,1",,"61,6","82,5",,"56,6","75,45","74,3","73,5","85,55","82,95","57,8","84,55","78,5",70,79,82,"71,8","77,7",80,"68,6","80,25","81,1","84,8","75,4","76,7",64,"78,3",75,74,"68,25",73,85,"78,8","74,3",MM
1703015052,"81,1","62,2",,59,76,,"56,25","93,45","59,75","69,75","84,05","63,8","56,3","87,5","74,3","70,7","67,35","87,2","71,3","70,5","70,55","71,5","74,25","64,7","89,1",74,88,75,"77,5","79,95","73,6",46,"65,25","70,1","59,5","61,5",MM
1703015072,"68,8","51,85",,"59,5","40,73",,"57,9",,,"67,75","79,75","62,38","54,5","80,75","79,5","57,3","57,6","68,15","71,6","68,1","48,07","72,75","59,75","60,5","68,48","71,95","56,1",18,"63,8","75,25",72,"45,9","72,25",68,"43,08","54,2",MM
1703015076,"68,2","56,4",,"60,25","71,7",,"60,28","81,3",29,"65,4","76,5","59,55","59,8","80,75","77,95","85,4","64,45","68,2","73,9","68,05","86,2","61,25","60,75","37,1","52,4","73,7","56,3","39,75","71,55",72,"49,25","48,35","56,2","56,2","59,4","66,6",MM
1703015089,"62,4",68,,"65,05","75,05",,"68,3","82,9",,"85,7","74,8","88,75","74,5","89,95",82,"89,5","74,7","86,5","68,85",73,90,"73,75","76,25","71,5","62,9","69,8","81,4","82,25","71,55","75,3","60,5","68,35","72,9","89,1","78,8","66,75",MM
1703015092,"69,8","73,85",,68,"61,55",,68,"93,45",61,"75,65",89,"66,35","59,2","83,3","77,8","66,45","63,65","83,3","60,75","69,55","45,2","68,25","76,05","72,4",80,"71,25","83,3","70,25","68,45","80,45","67,13","76,9","68,2","71,2","64,5","68,2",MM
1703015098,"60,5","64,8",,68,"61,7",,"63,03","70,15","80,1","64,65","70,5","65,7","64,5","80,2","74,8","83,3","66,9",61,"56,4","77,5","59,75","67,45","57,5","52,3","55,38","64,3","79,4",67,"61,6",69,86,"32,5","70,25","82,1","58,9","65,75",MM
1703015103,"62,3","56,1",,58,"77,7",,60,"92,95","65,9","58,9","56,25","73,45","56,45","85,6","77,5","56,48","86,4","87,4","82,2","72,2","45,75","65,25","75,75","65,7","89,1","64,75","81,3",70,"55,43",72,"70,4","64,25","56,05","75,5",86,"67,6",MM
1703015106,"68,4","56,1",,56,"62,3",,"53,03","90,35","65,55","65,7","87,8","60,65","64,3","79,7","77,15","66,6","57,2","78,6","42,45",68,"58,75","64,25","68,25","66,3","76,4","77,5",76,65,"59,5","66,7","67,5","56,3","59,6","80,9","64,15","56,25",MM
1703015110,67,"57,18",,57,"58,45",,56,"73,7","56,95",56,"66,85","62,7","68,1","74,75","78,45","59,45","59,45","56,75","67,75","70,55","53,5","73,5",77,"52,95","60,5","60,5","80,35","75,95","60,75","64,75","67,25",45,"67,8","80,9","84,45","63,5",MM
1703015113,"68,2","63,45",,62,"74,5",,"53,33","76,75","80,4","56,15","82,75","72,35","58,55","85,5",69,"61,8","61,48","81,1","80,6","72,9","53,25","56,5","74,5","60,55","87,5","64,05","58,8","84,65","63,25","68,9",70,"69,2","69,75","84,2",76,"71,3",MM
1703015122,"70,5","68,05",,"63,4","80,5",,"68,4","91,6","88,9","76,2","92,75","74,45",60,"88,75",72,"77,55","68,35","94,5","71,7","80,05","68,6","56,5","80,75","71,25","91,5","69,2","78,6","90,25","59,75","82,5","71,9","79,75","61,4",90,"68,05",77,MM
1703015129,"68,2","70,45",,68,"80,5",,"59,7","72,8","87,4","81,1",80,"71,25","65,75","84,3","77,15","68,2","85,75","81,75","43,48","73,25","72,3","76,5",63,"59,65","56,8",80,"92,8","62,55","68,5","72,4","60,4","56,35",71,80,"56,2",74,MM
1703015133,"65,3","58,35",,67,"47,55",,"47,58","84,6",72,"72,25","82,45","67,05","60,7","82,8","77,15","62,5","60,1","61,6","57,53","49,23",54,"52,48","74,05","52,08","60,63","48,83","57,45","56,3","56,5","57,5","66,2",,"61,53","67,3","66,55","78,1",MM
1703015145,"62,1","54,7",,"58,2",86,,"84,55",65,"68,95",61,75,"80,25","65,2","85,55","75,7","85,05","83,35","80,75","68,25","68,35",61,83,"69,5","68,15","79,7","70,3","80,25","71,7","40,53","82,4","65,75","58,9","73,4","57,7","78,95","78,4",MM
1703015151,"75,4","75,55",,60,"75,95",,"80,35","80,15",,"88,4",93,"77,6","83,5","87,25",82,"80,5","85,75","92,1","80,9","80,15","81,25","81,25","68,05","83,15","82,4","70,2",80,"89,2","71,75",66,"70,95",80,"77,5","91,5","93,05","76,7",MM
1703015152,"65,55","55,18",,"58,9",89,,"56,2","63,75","58,25","65,68","84,55",57,"57,9","86,2","77,15","64,23","71,5",80,"79,75",57,"76,7","64,5","64,25","53,35","87,7","69,3","78,5","60,8","68,1","61,7","58,5","45,75","51,25","72,1","80,05","62,6",MM
1703015164,"63,8","73,1",,62,81,,"65,65","85,8","56,7","73,95","80,35","73,45","65,1",88,"77,15","67,6","82,15","85,5","69,15","80,2","66,95","68,45","74,25","62,3",75,69,"78,5","93,05","88,1","71,25","69,5","68,35","68,4",68,"76,4","69,75",MM
1703015171,"64,5","56,75",,"60,6","62,5",,"56,25",76,"66,4","70,7","70,2","71,4","60,85","82,8","76,2","59,5","58,5","60,93","81,5","71,95","80,2","60,5","82,3","73,15","75,8","57,5","71,7","81,45","67,7","67,5","63,25","29,05","74,75",81,"60,7","60,43",MM
1703015183,80,"56,35",,"64,2","64,9",,"52,8","65,35","71,6","75,45","59,6","75,8","64,7","80,9","77,8","58,9","70,7","70,7",81,"89,95","52,23",69,"74,75","83,7","68,55","80,3","65,25",65,"68,25","69,2","66,25","30,9","76,4","86,4","66,25","79,15",MM